# m h(m) T/T_c 
0.010000 1.053429 2.000000
0.020000 1.100053 2.000000
0.030000 1.142330 2.000000
0.040000 1.181511 2.000000
0.050000 1.218488 2.000000
0.060000 1.253798 2.000000
0.070000 1.287798 2.000000
0.080000 1.320786 2.000000
0.090000 1.352941 2.000000
0.100000 1.384559 2.000000
0.110000 1.415641 2.000000
0.120000 1.446426 2.000000
0.130000 1.476913 2.000000
0.140000 1.507222 2.000000
0.150000 1.537411 2.000000
0.160000 1.567600 2.000000
0.170000 1.597790 2.000000
0.180000 1.627979 2.000000
0.190000 1.658347 2.000000
0.200000 1.688834 2.000000
0.210000 1.719500 2.000000
0.220000 1.750344 2.000000
0.230000 1.781486 2.000000
0.240000 1.812866 2.000000
0.250000 1.844544 2.000000
0.260000 1.876579 2.000000
0.270000 1.908912 2.000000
0.280000 1.941662 2.000000
0.290000 1.974769 2.000000
0.300000 2.008233 2.000000
0.310000 2.042174 2.000000
0.320000 2.076531 2.000000
0.330000 2.111305 2.000000
0.340000 2.146556 2.000000
0.350000 2.182283 2.000000
0.360000 2.218486 2.000000
0.370000 2.255107 2.000000
0.380000 2.292263 2.000000
0.390000 2.329895 2.000000
0.400000 2.368004 2.000000
0.410000 2.406649 2.000000
0.420000 2.445770 2.000000
0.430000 2.485367 2.000000
0.440000 2.525500 2.000000
0.450000 2.566110 2.000000
0.460000 2.607196 2.000000
0.470000 2.648758 2.000000
0.480000 2.690797 2.000000
0.490000 2.733312 2.000000
0.500000 2.776304 2.000000
0.510000 2.819712 2.000000
0.520000 2.863597 2.000000
0.530000 2.907958 2.000000
0.540000 2.952736 2.000000
0.550000 2.997930 2.000000
0.560000 3.043542 2.000000
0.570000 3.089510 2.000000
0.580000 3.135896 2.000000
0.590000 3.182698 2.000000
0.600000 3.229858 2.000000
0.610000 3.277375 2.000000
0.620000 3.325249 2.000000
0.630000 3.373421 2.000000
0.640000 3.421950 2.000000
0.650000 3.470836 2.000000
0.660000 3.519961 2.000000
0.670000 3.569443 2.000000
0.680000 3.619163 2.000000
0.690000 3.669181 2.000000
0.700000 3.719496 2.000000
0.710000 3.769990 2.000000
0.720000 3.820842 2.000000
0.730000 3.871872 2.000000
0.740000 3.923140 2.000000
0.750000 3.974587 2.000000
0.760000 4.026332 2.000000
0.770000 4.078255 2.000000
0.780000 4.130357 2.000000
0.790000 4.182637 2.000000
0.800000 4.235156 2.000000
0.810000 4.287794 2.000000
0.820000 4.340670 2.000000
0.830000 4.393665 2.000000
0.840000 4.446838 2.000000
0.850000 4.500131 2.000000
0.860000 4.553602 2.000000
0.870000 4.607193 2.000000
0.880000 4.660962 2.000000
0.890000 4.714850 2.000000
0.900000 4.768858 2.000000
0.910000 4.822924 2.000000
0.920000 4.877170 2.000000
0.930000 4.931534 2.000000
0.940000 4.986018 2.000000
0.950000 5.040561 2.000000
0.960000 5.095224 2.000000
0.970000 5.150005 2.000000
0.980000 5.204846 2.000000
0.990000 5.259806 2.000000
1.000000 5.314825 2.000000
1.010000 5.369964 2.000000
1.020000 5.425162 2.000000
1.030000 5.480420 2.000000
1.040000 5.535797 2.000000
1.050000 5.591233 2.000000
1.060000 5.646729 2.000000
1.070000 5.702285 2.000000
1.080000 5.757900 2.000000
1.090000 5.813634 2.000000
1.100000 5.869368 2.000000
1.110000 5.925221 2.000000
1.120000 5.981074 2.000000
1.130000 6.036987 2.000000
1.140000 6.092959 2.000000
1.150000 6.148991 2.000000
1.160000 6.205082 2.000000
1.170000 6.261233 2.000000
1.180000 6.317444 2.000000
1.190000 6.373654 2.000000
1.200000 6.429924 2.000000
1.210000 6.486254 2.000000
1.220000 6.542583 2.000000
1.230000 6.598972 2.000000
1.240000 6.655421 2.000000
1.250000 6.711870 2.000000
1.260000 6.768378 2.000000
1.270000 6.824946 2.000000
1.280000 6.881513 2.000000
1.290000 6.938141 2.000000
1.300000 6.994768 2.000000
1.310000 7.051455 2.000000
1.320000 7.108142 2.000000
1.330000 7.164888 2.000000
1.340000 7.221634 2.000000
1.350000 7.278440 2.000000
1.360000 7.335246 2.000000
1.370000 7.392112 2.000000
1.380000 7.448977 2.000000
1.390000 7.505902 2.000000
1.400000 7.562768 2.000000
1.410000 7.619752 2.000000
1.420000 7.676677 2.000000
1.430000 7.733721 2.000000
1.440000 7.790706 2.000000
1.450000 7.847750 2.000000
1.460000 7.904794 2.000000
1.470000 7.961838 2.000000
1.480000 8.018942 2.000000
1.490000 8.076045 2.000000
1.500000 8.133208 2.000000
1.510000 8.190372 2.000000
1.520000 8.247535 2.000000
1.530000 8.304698 2.000000
1.540000 8.361921 2.000000
1.550000 8.419143 2.000000
1.560000 8.476366 2.000000
1.570000 8.533589 2.000000
1.580000 8.590871 2.000000
1.590000 8.648153 2.000000
1.600000 8.705436 2.000000
1.610000 8.762718 2.000000
1.620000 8.820060 2.000000
1.630000 8.877402 2.000000
1.640000 8.934743 2.000000
1.650000 8.992085 2.000000
1.660000 9.049487 2.000000
1.670000 9.106888 2.000000
1.680000 9.164289 2.000000
1.690000 9.221691 2.000000
1.700000 9.279092 2.000000
1.710000 9.336493 2.000000
1.720000 9.393954 2.000000
1.730000 9.451415 2.000000
1.740000 9.508876 2.000000
1.750000 9.566337 2.000000
1.760000 9.623857 2.000000
1.770000 9.681318 2.000000
1.780000 9.738839 2.000000
1.790000 9.796359 2.000000
1.800000 9.853880 2.000000
1.810000 9.911400 2.000000
1.820000 9.968921 2.000000
1.830000 10.026501 2.000000
1.840000 10.084021 2.000000
1.850000 10.141601 2.000000
1.860000 10.199181 2.000000
1.870000 10.256761 2.000000
1.880000 10.314341 2.000000
1.890000 10.371921 2.000000
1.900000 10.429561 2.000000
1.910000 10.487141 2.000000
1.920000 10.544780 2.000000
1.930000 10.602420 2.000000
1.940000 10.660059 2.000000
1.950000 10.717699 2.000000
1.960000 10.775338 2.000000
1.970000 10.832978 2.000000
1.980000 10.890617 2.000000
1.990000 10.948316 2.000000
2.000000 11.005956 2.000000
2.010000 11.063655 2.000000
2.020000 11.121354 2.000000
2.030000 11.178994 2.000000
2.040000 11.236693 2.000000
2.050000 11.294392 2.000000
2.060000 11.352091 2.000000
2.070000 11.409850 2.000000
2.080000 11.467549 2.000000
2.090000 11.525248 2.000000
2.100000 11.583006 2.000000
2.110000 11.640706 2.000000
2.120000 11.698464 2.000000
2.130000 11.756223 2.000000
2.140000 11.813922 2.000000
2.150000 11.871681 2.000000
2.160000 11.929439 2.000000
2.170000 11.987198 2.000000
2.180000 12.044956 2.000000
2.190000 12.102775 2.000000
2.200000 12.160533 2.000000
2.210000 12.218292 2.000000
2.220000 12.276050 2.000000
2.230000 12.333869 2.000000
2.240000 12.391627 2.000000
2.250000 12.449445 2.000000
2.260000 12.507264 2.000000
2.270000 12.565022 2.000000
2.280000 12.622840 2.000000
2.290000 12.680659 2.000000
2.300000 12.738477 2.000000
2.310000 12.796295 2.000000
2.320000 12.854113 2.000000
2.330000 12.911931 2.000000
2.340000 12.969749 2.000000
2.350000 13.027568 2.000000
2.360000 13.085386 2.000000
2.370000 13.143264 2.000000
2.380000 13.201082 2.000000
2.390000 13.258900 2.000000
2.400000 13.316778 2.000000
2.410000 13.374596 2.000000
2.420000 13.432474 2.000000
2.430000 13.490292 2.000000
2.440000 13.548169 2.000000
2.450000 13.606047 2.000000
2.460000 13.663925 2.000000
2.470000 13.721743 2.000000
2.480000 13.779621 2.000000
2.490000 13.837498 2.000000
2.500000 13.895376 2.000000
2.510000 13.953254 2.000000
2.520000 14.011132 2.000000
2.530000 14.069009 2.000000
2.540000 14.126887 2.000000
2.550000 14.184765 2.000000
2.560000 14.242643 2.000000
2.570000 14.300580 2.000000
2.580000 14.358458 2.000000
2.590000 14.416335 2.000000
2.600000 14.474273 2.000000
2.610000 14.532150 2.000000
2.620000 14.590028 2.000000
2.630000 14.647965 2.000000
2.640000 14.705843 2.000000
2.650000 14.763780 2.000000
2.660000 14.821658 2.000000
2.670000 14.879595 2.000000
2.680000 14.937532 2.000000
2.690000 14.995410 2.000000
2.700000 15.053347 2.000000
2.710000 15.111285 2.000000
2.720000 15.169162 2.000000
2.730000 15.227100 2.000000
2.740000 15.285037 2.000000
2.750000 15.342974 2.000000
2.760000 15.400912 2.000000
2.770000 15.458849 2.000000
2.780000 15.516786 2.000000
2.790000 15.574723 2.000000
2.800000 15.632661 2.000000
2.810000 15.690598 2.000000
2.820000 15.748535 2.000000
2.830000 15.806472 2.000000
2.840000 15.864410 2.000000
2.850000 15.922347 2.000000
2.860000 15.980284 2.000000
2.870000 16.038221 2.000000
2.880000 16.096218 2.000000
2.890000 16.154156 2.000000
2.900000 16.212093 2.000000
2.910000 16.270090 2.000000
2.920000 16.328027 2.000000
2.930000 16.385964 2.000000
2.940000 16.443961 2.000000
2.950000 16.501898 2.000000
2.960000 16.559835 2.000000
2.970000 16.617832 2.000000
2.980000 16.675770 2.000000
2.990000 16.733766 2.000000
3.000000 16.791704 2.000000
3.010000 16.849700 2.000000
3.020000 16.907697 2.000000
3.030000 16.965635 2.000000
3.040000 17.023631 2.000000
3.050000 17.081569 2.000000
3.060000 17.139565 2.000000
3.070000 17.197562 2.000000
3.080000 17.255499 2.000000
3.090000 17.313496 2.000000
3.100000 17.371493 2.000000
3.110000 17.429490 2.000000
3.120000 17.487427 2.000000
3.130000 17.545424 2.000000
3.140000 17.603421 2.000000
3.150000 17.661418 2.000000
3.160000 17.719414 2.000000
3.170000 17.777411 2.000000
3.180000 17.835348 2.000000
3.190000 17.893345 2.000000
3.200000 17.951342 2.000000
3.210000 18.009339 2.000000
3.220000 18.067336 2.000000
3.230000 18.125333 2.000000
3.240000 18.183329 2.000000
3.250000 18.241326 2.000000
3.260000 18.299323 2.000000
3.270000 18.357320 2.000000
3.280000 18.415317 2.000000
3.290000 18.473313 2.000000
3.300000 18.531310 2.000000
3.310000 18.589367 2.000000
3.320000 18.647363 2.000000
3.330000 18.705360 2.000000
3.340000 18.763357 2.000000
3.350000 18.821354 2.000000
3.360000 18.879351 2.000000
3.370000 18.937407 2.000000
3.380000 18.995404 2.000000
3.390000 19.053401 2.000000
3.400000 19.111397 2.000000
3.410000 19.169454 2.000000
3.420000 19.227451 2.000000
3.430000 19.285447 2.000000
3.440000 19.343444 2.000000
3.450000 19.401501 2.000000
3.460000 19.459497 2.000000
3.470000 19.517494 2.000000
3.480000 19.575551 2.000000
3.490000 19.633547 2.000000
3.500000 19.691604 2.000000
3.510000 19.749601 2.000000
3.520000 19.807597 2.000000
3.530000 19.865654 2.000000
3.540000 19.923650 2.000000
3.550000 19.981707 2.000000
3.560000 20.039704 2.000000
3.570000 20.097760 2.000000
3.580000 20.155757 2.000000
3.590000 20.213813 2.000000
3.600000 20.271810 2.000000
3.610000 20.329866 2.000000
3.620000 20.387863 2.000000
3.630000 20.445920 2.000000
3.640000 20.503916 2.000000
3.650000 20.561973 2.000000
3.660000 20.619970 2.000000
3.670000 20.678026 2.000000
3.680000 20.736082 2.000000
3.690000 20.794079 2.000000
3.700000 20.852135 2.000000
3.710000 20.910132 2.000000
3.720000 20.968189 2.000000
3.730000 21.026245 2.000000
3.740000 21.084242 2.000000
3.750000 21.142298 2.000000
3.760000 21.200354 2.000000
3.770000 21.258351 2.000000
3.780000 21.316408 2.000000
3.790000 21.374464 2.000000
3.800000 21.432520 2.000000
3.810000 21.490517 2.000000
3.820000 21.548573 2.000000
3.830000 21.606630 2.000000
3.840000 21.664686 2.000000
3.850000 21.722683 2.000000
3.860000 21.780739 2.000000
3.870000 21.838796 2.000000
3.880000 21.896852 2.000000
3.890000 21.954908 2.000000
3.900000 22.012905 2.000000
3.910000 22.070962 2.000000
3.920000 22.129018 2.000000
3.930000 22.187074 2.000000
3.940000 22.245131 2.000000
3.950000 22.303187 2.000000
3.960000 22.361243 2.000000
3.970000 22.419240 2.000000
3.980000 22.477297 2.000000
3.990000 22.535353 2.000000
4.000000 22.593409 2.000000
# m h(m) T/T_c 
0.010000 1.026575 1.000000
0.020000 1.049321 1.000000
0.030000 1.069328 1.000000
0.040000 1.087310 1.000000
0.050000 1.103626 1.000000
0.060000 1.118631 1.000000
0.070000 1.132505 1.000000
0.080000 1.145486 1.000000
0.090000 1.157693 1.000000
0.100000 1.169244 1.000000
0.110000 1.180141 1.000000
0.120000 1.190561 1.000000
0.130000 1.200446 1.000000
0.140000 1.209973 1.000000
0.150000 1.219083 1.000000
0.160000 1.227837 1.000000
0.170000 1.236292 1.000000
0.180000 1.244450 1.000000
0.190000 1.252369 1.000000
0.200000 1.259991 1.000000
0.210000 1.267434 1.000000
0.220000 1.274639 1.000000
0.230000 1.281665 1.000000
0.240000 1.288513 1.000000
0.250000 1.295122 1.000000
0.260000 1.301613 1.000000
0.270000 1.307984 1.000000
0.280000 1.314177 1.000000
0.290000 1.320250 1.000000
0.300000 1.326205 1.000000
0.310000 1.331981 1.000000
0.320000 1.337697 1.000000
0.330000 1.343294 1.000000
0.340000 1.348772 1.000000
0.350000 1.354191 1.000000
0.360000 1.359491 1.000000
0.370000 1.364671 1.000000
0.380000 1.369851 1.000000
0.390000 1.374853 1.000000
0.400000 1.379855 1.000000
0.410000 1.384738 1.000000
0.420000 1.389561 1.000000
0.430000 1.394324 1.000000
0.440000 1.398969 1.000000
0.450000 1.403613 1.000000
0.460000 1.408198 1.000000
0.470000 1.412664 1.000000
0.480000 1.417130 1.000000
0.490000 1.421536 1.000000
0.500000 1.425883 1.000000
0.510000 1.430170 1.000000
0.520000 1.434398 1.000000
0.530000 1.438626 1.000000
0.540000 1.442794 1.000000
0.550000 1.446903 1.000000
0.560000 1.450952 1.000000
0.570000 1.455001 1.000000
0.580000 1.458990 1.000000
0.590000 1.462980 1.000000
0.600000 1.466850 1.000000
0.610000 1.470780 1.000000
0.620000 1.474591 1.000000
0.630000 1.478402 1.000000
0.640000 1.482213 1.000000
0.650000 1.485964 1.000000
0.660000 1.489715 1.000000
0.670000 1.493407 1.000000
0.680000 1.497039 1.000000
0.690000 1.500672 1.000000
0.700000 1.504304 1.000000
0.710000 1.507877 1.000000
0.720000 1.511449 1.000000
0.730000 1.515022 1.000000
0.740000 1.518535 1.000000
0.750000 1.522048 1.000000
0.760000 1.525502 1.000000
0.770000 1.528956 1.000000
0.780000 1.532409 1.000000
0.790000 1.535803 1.000000
0.800000 1.539197 1.000000
0.810000 1.542591 1.000000
0.820000 1.545926 1.000000
0.830000 1.549260 1.000000
0.840000 1.552595 1.000000
0.850000 1.555870 1.000000
0.860000 1.559204 1.000000
0.870000 1.562479 1.000000
0.880000 1.565695 1.000000
0.890000 1.568970 1.000000
0.900000 1.572185 1.000000
0.910000 1.575401 1.000000
0.920000 1.578616 1.000000
0.930000 1.581772 1.000000
0.940000 1.584987 1.000000
0.950000 1.588143 1.000000
0.960000 1.591299 1.000000
0.970000 1.594455 1.000000
0.980000 1.597611 1.000000
0.990000 1.600707 1.000000
1.000000 1.603804 1.000000
1.010000 1.606900 1.000000
1.020000 1.609996 1.000000
1.030000 1.613093 1.000000
1.040000 1.616189 1.000000
1.050000 1.619226 1.000000
1.060000 1.622322 1.000000
1.070000 1.625359 1.000000
1.080000 1.628396 1.000000
1.090000 1.631432 1.000000
1.100000 1.634469 1.000000
1.110000 1.637506 1.000000
1.120000 1.640543 1.000000
1.130000 1.643580 1.000000
1.140000 1.646557 1.000000
1.150000 1.649594 1.000000
1.160000 1.652571 1.000000
1.170000 1.655548 1.000000
1.180000 1.658585 1.000000
1.190000 1.661562 1.000000
1.200000 1.664539 1.000000
1.210000 1.667517 1.000000
1.220000 1.670494 1.000000
1.230000 1.673471 1.000000
1.240000 1.676448 1.000000
1.250000 1.679426 1.000000
1.260000 1.682403 1.000000
1.270000 1.685380 1.000000
1.280000 1.688298 1.000000
1.290000 1.691275 1.000000
1.300000 1.694252 1.000000
1.310000 1.697230 1.000000
1.320000 1.700147 1.000000
1.330000 1.703125 1.000000
1.340000 1.706102 1.000000
1.350000 1.709079 1.000000
1.360000 1.712056 1.000000
1.370000 1.714974 1.000000
1.380000 1.717951 1.000000
1.390000 1.720929 1.000000
1.400000 1.723906 1.000000
1.410000 1.726883 1.000000
1.420000 1.729860 1.000000
1.430000 1.732838 1.000000
1.440000 1.735815 1.000000
1.450000 1.738792 1.000000
1.460000 1.741769 1.000000
1.470000 1.744747 1.000000
1.480000 1.747783 1.000000
1.490000 1.750761 1.000000
1.500000 1.753797 1.000000
1.510000 1.756775 1.000000
1.520000 1.759811 1.000000
1.530000 1.762789 1.000000
1.540000 1.765826 1.000000
1.550000 1.768862 1.000000
1.560000 1.771899 1.000000
1.570000 1.774936 1.000000
1.580000 1.777973 1.000000
1.590000 1.781069 1.000000
1.600000 1.784106 1.000000
1.610000 1.787202 1.000000
1.620000 1.790298 1.000000
1.630000 1.793335 1.000000
1.640000 1.796491 1.000000
1.650000 1.799588 1.000000
1.660000 1.802684 1.000000
1.670000 1.805840 1.000000
1.680000 1.808936 1.000000
1.690000 1.812092 1.000000
1.700000 1.815248 1.000000
1.710000 1.818463 1.000000
1.720000 1.821619 1.000000
1.730000 1.824835 1.000000
1.740000 1.828050 1.000000
1.750000 1.831265 1.000000
1.760000 1.834481 1.000000
1.770000 1.837696 1.000000
1.780000 1.840971 1.000000
1.790000 1.844246 1.000000
1.800000 1.847581 1.000000
1.810000 1.850856 1.000000
1.820000 1.854190 1.000000
1.830000 1.857525 1.000000
1.840000 1.860859 1.000000
1.850000 1.864253 1.000000
1.860000 1.867647 1.000000
1.870000 1.871041 1.000000
1.880000 1.874495 1.000000
1.890000 1.877949 1.000000
1.900000 1.881402 1.000000
1.910000 1.884915 1.000000
1.920000 1.888429 1.000000
1.930000 1.892001 1.000000
1.940000 1.895514 1.000000
1.950000 1.899147 1.000000
1.960000 1.902719 1.000000
1.970000 1.906352 1.000000
1.980000 1.910043 1.000000
1.990000 1.913735 1.000000
2.000000 1.917427 1.000000
2.010000 1.921178 1.000000
2.020000 1.924930 1.000000
2.030000 1.928741 1.000000
2.040000 1.932611 1.000000
2.050000 1.936481 1.000000
2.060000 1.940352 1.000000
2.070000 1.944282 1.000000
2.080000 1.948271 1.000000
2.090000 1.952261 1.000000
2.100000 1.956310 1.000000
2.110000 1.960418 1.000000
2.120000 1.964527 1.000000
2.130000 1.968695 1.000000
2.140000 1.972923 1.000000
2.150000 1.977151 1.000000
2.160000 1.981438 1.000000
2.170000 1.985785 1.000000
2.180000 1.990191 1.000000
2.190000 1.994657 1.000000
2.200000 1.999182 1.000000
2.210000 2.003708 1.000000
2.220000 2.008352 1.000000
2.230000 2.012997 1.000000
2.240000 2.017760 1.000000
2.250000 2.022583 1.000000
2.260000 2.027407 1.000000
2.270000 2.032349 1.000000
2.280000 2.037410 1.000000
2.290000 2.042471 1.000000
2.300000 2.047652 1.000000
2.310000 2.052892 1.000000
2.320000 2.058191 1.000000
2.330000 2.063669 1.000000
2.340000 2.069148 1.000000
2.350000 2.074804 1.000000
2.360000 2.080521 1.000000
2.370000 2.086297 1.000000
2.380000 2.092251 1.000000
2.390000 2.098325 1.000000
2.400000 2.104517 1.000000
2.410000 2.110829 1.000000
2.420000 2.117320 1.000000
2.430000 2.123929 1.000000
2.440000 2.130658 1.000000
2.450000 2.137624 1.000000
2.460000 2.144710 1.000000
2.470000 2.152034 1.000000
2.480000 2.159537 1.000000
2.490000 2.167218 1.000000
2.500000 2.175197 1.000000
2.510000 2.183355 1.000000
2.520000 2.191870 1.000000
2.530000 2.200623 1.000000
2.540000 2.209674 1.000000
2.550000 2.219082 1.000000
2.560000 2.228847 1.000000
2.570000 2.239029 1.000000
2.580000 2.249688 1.000000
2.590000 2.260823 1.000000
2.600000 2.272553 1.000000
2.610000 2.284879 1.000000
2.620000 2.297919 1.000000
2.630000 2.311793 1.000000
2.640000 2.326561 1.000000
2.650000 2.342459 1.000000
2.660000 2.359608 1.000000
2.670000 2.378305 1.000000
2.680000 2.398908 1.000000
2.690000 2.421952 1.000000
2.700000 2.448092 1.000000
2.710000 2.478579 1.000000
2.720000 2.515378 1.000000
2.730000 2.562418 1.000000
2.740000 2.630121 1.000000
2.750000 2.774934 1.000000
2.760000 3.430644 1.000000
2.770000 3.599335 1.000000
2.780000 3.721521 1.000000
2.790000 3.823105 1.000000
2.800000 3.912422 1.000000
2.810000 3.993403 1.000000
2.820000 4.068311 1.000000
2.830000 4.138574 1.000000
2.840000 4.205145 1.000000
2.850000 4.268680 1.000000
2.860000 4.329594 1.000000
2.870000 4.388365 1.000000
2.880000 4.445231 1.000000
2.890000 4.500488 1.000000
2.900000 4.554317 1.000000
2.910000 4.606776 1.000000
2.920000 4.658104 1.000000
2.930000 4.708419 1.000000
2.940000 4.757723 1.000000
2.950000 4.806192 1.000000
2.960000 4.853828 1.000000
2.970000 4.900809 1.000000
2.980000 4.947016 1.000000
2.990000 4.992628 1.000000
3.000000 5.037703 1.000000
3.010000 5.082183 1.000000
3.020000 5.126127 1.000000
3.030000 5.169655 1.000000
3.040000 5.212706 1.000000
3.050000 5.255280 1.000000
3.060000 5.297498 1.000000
3.070000 5.339358 1.000000
3.080000 5.380861 1.000000
3.090000 5.422006 1.000000
3.100000 5.462795 1.000000
3.110000 5.503345 1.000000
3.120000 5.543538 1.000000
3.130000 5.583492 1.000000
3.140000 5.623149 1.000000
3.150000 5.662568 1.000000
3.160000 5.701749 1.000000
3.170000 5.740691 1.000000
3.180000 5.779395 1.000000
3.190000 5.817921 1.000000
3.200000 5.856208 1.000000
3.210000 5.894317 1.000000
3.220000 5.932247 1.000000
3.230000 5.969999 1.000000
3.240000 6.007512 1.000000
3.250000 6.044906 1.000000
3.260000 6.082122 1.000000
3.270000 6.119159 1.000000
3.280000 6.156077 1.000000
3.290000 6.192876 1.000000
3.300000 6.229496 1.000000
3.310000 6.265937 1.000000
